# 20250122_110422
# epsilon:0.00012298(GeV^4)
# mass:0.28(GeV)
# sign:1
alpha,RePhi,ImPhi,ReDPhi,ImDPhi
0.,0.041538922913780134,0,-0.13223261492068739,0
0.01,0.04154904849340956,0,-0.13259441428775934,0
0.02,0.04157817918256639,0,-0.1326705626291181,0
0.03,0.04162502312426605,0,-0.13261634347858062,0
0.04,0.041688963798713875,0,-0.13250909610795666,0
0.05,0.041769798384538835,0,-0.13238018496388673,0
0.06,0.04186754613468415,0,-0.13223627376007802,0
0.07,0.04198232060361324,0,-0.1320726452185492,0
0.08,0.04211425131628414,0,-0.13188090484022108,0
0.09,0.04226344745799532,0,-0.1316529548305104,0
0.1,0.04242996596918832,0,-0.13138257220183505,0
0.11,0.04261382233518241,0,-0.1310655931932106,0
0.12,0.04281498362792012,0,-0.13069936262840812,0
0.13,0.04303338681160782,0,-0.1302819024761137,0
0.14,0.043268959110120915,0,-0.12981117775491147,0
0.15,0.04352160215815768,0,-0.12928430459895923,0
0.16,0.04379122507652759,0,-0.1286972276027791,0
0.17,0.04407772881478986,0,-0.12804448559202336,0
0.18,0.04438100882064792,0,-0.12731911386050032,0
0.19,0.04470093967885422,0,-0.12651280927603678,0
0.2,0.04503736995607685,0,-0.12561604662250436,0
0.21,0.04539009713149794,0,-0.12461827204372485,0
0.22,0.045758862280452825,0,-0.12350814533188503,0
0.23,0.046143326484189194,0,-0.12227356912988374,0
0.24,0.04654305359269754,0,-0.12090190131452025,0
0.25,0.0469574972030902,0,-0.1193798637237375,0
0.26,0.04738596371654391,0,-0.11769358001689775,0
0.27,0.04782763076553455,0,-0.11582847343387108,0
0.28,0.04828147109998309,0,-0.11376914925824519,0
0.29,0.04874630765030335,0,-0.11149934127702572,0
0.3,0.0492207066857259,0,-0.10900174343635877,0
0.31,0.04970305652580163,0,-0.10625803567752191,0
0.32,0.050191420715968486,0,-0.10324880923600785,0
0.33,0.050683673701726356,0,-0.0999536558112417,0
0.34,0.051177295960813295,0,-0.09635128391571421,0
0.35000000000000003,0.051669547681730876,0,-0.0924196494317973,0
0.36,0.05215725600553225,0,-0.0881362886232133,0
0.37,0.05263699366120667,0,-0.08347846294309291,0
0.38,0.053104852947721284,0,-0.07842375586967493,0
0.39,0.05355665547003789,0,-0.07295010255539534,0
0.4,0.053987715890645584,0,-0.06703666511133592,0
0.41000000000000003,0.05439307152741034,0,-0.06066367214358924,0
0.42,0.054767251792396165,0,-0.05381356203944812,0
0.43,0.055104517611638294,0,-0.04647056987797791,0
0.44,0.05539865224600383,0,-0.03862213346590325,0
0.45,0.05564319755481486,0,-0.030258196834698936,0
0.46,0.05583128223046726,0,-0.021372880740470907,0
0.47000000000000003,0.055955840408755696,0,-0.011963506703479055,0
0.48,0.056009492696707956,0,-0.0020325293641375625,0
0.49,0.055984732906569606,0,0.008413789078339512,0
0.5,0.05587387165687177,0,0.019362592011944808,0
0.51,0.05566917412913714,0,0.030797233216170682,0
0.52,0.05536291747339233,0,0.042693105825270035,0
0.53,0.0549474269665716,0,0.055020618112839856,0
0.54,0.05441520876071244,0,0.06774249655764088,0
0.55,0.05375902401309792,0,0.08081413755042519,0
0.56,0.05297189577888489,0,0.09418445487797218,0
0.5700000000000001,0.05204747050928889,0,0.10779289700499299,0
0.58,0.05097965842984017,0,0.12157341170483965,0
0.59,0.04976337575896865,0,0.13545013632797065,0
0.6,0.04839396081179065,0,0.14934168613703613,0
0.61,0.046867882826557294,0,0.16315886955625455,0
0.62,0.04518251880130472,0,0.17680663936704766,0
0.63,0.04333618204592242,0,0.1901852780356859,0
0.64,0.04132878250184458,0,0.20319017575703974,0
0.65,0.03916089301962154,0,0.21571486190465103,0
0.66,0.036835172456787996,0,0.22765096192027975,0
0.67,0.03435500219428507,0,0.23889047612300635,0
0.68,0.03172574736426825,0,0.24932743868035584,0
0.6900000000000001,0.02895400610085968,0,0.2588590741064332,0
0.7000000000000001,0.026047787148251435,0,0.26738757982522826,0
0.71,0.02301693331707775,0,0.2748226843193266,0
0.72,0.019872103570042564,0,0.281080442952445,0
0.73,0.016625991062825887,0,0.2860893271989395,0
0.74,0.013291890032897373,0,0.2897856483972778,0
0.75,0.009884699723184285,0,0.2921209994867793,0
0.76,0.006420041887252584,0,0.293058474391457,0
0.77,0.002914406604565178,0,0.2925761818513033,0
0.78,-0.0006149772848444085,0,0.29066916360248424,0
0.79,-0.0041505804345994485,0,0.287345465269311,0
0.8,-0.007674526204978885,0,0.28263446897369593,0
0.81,-0.011168921445688606,0,0.2765775564642291,0
0.8200000000000001,-0.014616155090741184,0,0.2692375114390116,0
0.8300000000000001,-0.017998912643834575,0,0.26069045343710157,0
0.84,-0.02130057994570135,0,0.2510291075380215,0
0.85,-0.02450529885962416,0,0.2403597706358694,0
0.86,-0.027598366194636636,0,0.2288013799158717,0
0.87,-0.03056608337769047,0,0.21648166039783182,0
0.88,-0.03339635279617454,0,0.20353627806517238,0
0.89,-0.03607822368661839,0,0.1901039432339546,0
0.9,-0.03860268251440024,0,0.17632516485902827,0
0.91,-0.04096194075851441,0,0.16233769111550675,0
0.92,-0.04315026532880803,0,0.14827472595764893,0
0.93,-0.04516319999193004,0,0.13426177002775364,0
0.9400000000000001,-0.04699823408415883,0,0.12041472647853824,0
0.9500000000000001,-0.04865415046914857,0,0.10683836530896433,0
0.96,-0.05013140015988172,0,0.09362497380046576,0
0.97,-0.0514316520900288,0,0.08085413790012844,0
0.98,-0.05255787344960984,0,0.0685924352573201,0
0.99,-0.05351413062970358,0,0.056893673225723314,0
1.,-0.054305439859977746,0,0.045799533672064546,0
1.01,-0.05493760483604136,0,0.035340367659000387,0
1.02,-0.05541708459030599,0,0.025536010828292946,0
1.03,-0.055750859317180775,0,0.01639656034552118,0
1.04,-0.05594627185226121,0,0.007923356869236104,0
1.05,-0.056010903768123226,0,0.00010988338392002104,0
1.06,-0.05595246687512369,0,-0.007057391876320988,0
1.07,-0.05577868796159721,0,-0.013598257516826738,0
1.08,-0.05549722851667259,0,-0.019537422138509283,0
1.09,-0.05511560412199287,0,-0.02490370219073514,0
1.1,-0.05464111371332773,0,-0.029728822062948065,0
1.11,-0.0540808287531979,0,-0.03404599426439741,0
1.12,-0.05344150944913726,0,-0.03788898738740626,0
1.1300000000000001,-0.052729621159421064,0,-0.0412908679986136,0
1.1400000000000001,-0.05195132091227924,0,-0.044283181971316414,0
1.1500000000000001,-0.05111240957575919,0,-0.0468955432837064,0
1.16,-0.050218386134857546,0,-0.049155383069567536,0
1.17,-0.04927440633867229,0,-0.05108832576099435,0
1.18,-0.048285279019422686,0,-0.05271882728298391,0
1.19,-0.047255506730338175,0,-0.0540709631005264,0
1.2,-0.046189228883339456,0,-0.055169361243429846,0
1.21,-0.045090249078016204,0,-0.05603978522953493,0
1.22,-0.04396199774848068,0,-0.05670933765679052,0
1.23,-0.04280768501058538,0,-0.05720592460773818,0
1.24,-0.04163004118043545,0,-0.05755725176270457,0
1.25,-0.04043165568810758,0,-0.05778899731600019,0
1.26,-0.039214773706849136,0,-0.05792281531223201,0
1.27,-0.03798147912547832,0,-0.057974466439328215,0
1.28,-0.0367336405519638,0,-0.05795251134698547,0
1.29,-0.03547301866593654,0,-0.057858262705050116,0
1.3,-0.03420124949620981,0,-0.057687094526026626,0
1.31,-0.032919869843886264,0,-0.057431455489972305,0
1.32,-0.03163031263254421,0,-0.05708497058988929,0
1.33,-0.03033386548693696,0,-0.05664707194501076,0
1.34,-0.0290316773124157,0,-0.056126868431466304,0
1.35,-0.02772469159222332,0,-0.05554505370902947,0
1.36,-0.026413690881852737,0,-0.05493280526553609,0
1.37,-0.025099273557969273,0,-0.054327228084245456,0
1.3800000000000001,-0.023781926902261066,0,-0.05376411347640396,0
1.3900000000000001,-0.022462107098247686,0,-0.0532697593694905,0
1.4000000000000001,-0.021140274742070277,0,-0.0528550432428573,0
1.41,-0.019816936741562746,0,-0.052515086311534426,0
1.42,-0.01849262975478885,0,-0.05223722121384892,0
1.43,-0.01716785117292749,0,-0.05201747742791632,0
1.44,-0.015842961707132053,0,-0.05188189168926197,0
1.45,-0.01451813000476293,0,-0.05190442898808635,0
1.46,-0.013193325542148046,0,-0.052209515428898824,0
1.47,-0.011868431611478233,0,-0.05294814878808271,0
1.48,-0.010543443673916148,0,-0.05424560162403817,0
1.49,-0.009218610091635292,0,-0.05613757552411738,0
1.5,-0.007894378488631436,0,-0.05853874785201309,0
1.51,-0.006571269252983662,0,-0.061308507940826505,0
1.52,-0.005249385388490865,0,-0.06446563531886444,0
1.53,-0.003928673474420757,0,-0.06851487513886885,0
1.54,-0.0026095122948049327,0,-0.07467971892930637,0
1.55,-0.001293431886361846,0,-0.08471413344752508,0
1.56,0.000017533997969801168,0,-0.10044724833723516,0
1.57,0.0013195712262140424,0,-0.12594014562299718,0
1.58,0.0025845156868980652,0,-0.17760339895006047,0