# 20250122_110422
# epsilon:0.00012298(GeV^4)
# mass:0.28(GeV)
# sign:1
alpha,RePhi,ImPhi,ReDPhi,ImDPhi
0.,0.04686222517872573,0,-0.10796747796987387,0
0.01,0.04687048983324796,0,-0.10825058112860947,0
0.02,0.0468942702726482,0,-0.10827722051698511,0
0.03,0.046932491276904235,0,-0.10817568573516144,0
0.04,0.04698462928045979,0,-0.10800968878558219,0
0.05,0.04705048777951609,0,-0.10780480867407408,0
0.06,0.04713004441313663,0,-0.10756608519346976,0
0.07,0.0472233438395506,0,-0.10728908100313124,0
0.08,0.04733043524157509,0,-0.10696626565471039,0
0.09,0.04745133230113184,0,-0.1065903197281333,0
0.1,0.04758601283501675,0,-0.10615541632366653,0
0.11,0.047734394529561304,0,-0.10565739659837119,0
0.12,0.04789634695088087,0,-0.10509324503616674,0
0.13,0.04807171210255119,0,-0.10446047088264275,0
0.14,0.048260292122604055,0,-0.103756346816811,0
0.15,0.04846187279439729,0,-0.10297739281842405,0
0.16,0.04867622139220015,0,-0.10211908468576464,0
0.17,0.04890307932131755,0,-0.1011754887163632,0
0.18,0.04914216483487005,0,-0.10013943962588596,0
0.19,0.04939316511520642,0,-0.09900253066926835,0
0.2,0.049655711294623296,0,-0.09775523145920942,0
0.21,0.049929376445757935,0,-0.09638695376415479,0
0.22,0.05021364725058919,0,-0.09488645553702688,0
0.23,0.05050793378488966,0,-0.09324178292100367,0
0.24,0.050811510907584595,0,-0.09144040886963331,0
0.25,0.051123555078522814,0,-0.08946926648392202,0
0.26,0.05144306382258571,0,-0.08731464566557699,0
0.27,0.051768901871860076,0,-0.08496225753560668,0
0.28,0.0520997295096512,0,-0.08239705488391696,0
0.29,0.05243402960637138,0,-0.07960327539827501,0
0.3,0.05277002650662185,0,-0.07656431737955464,0
0.31,0.053105782364209264,0,-0.07326278322219486,0
0.32,0.053438998802416246,0,-0.06968052936054811,0
0.33,0.05376722016097872,0,-0.06579869115315447,0
0.34,0.0540875801838219,0,-0.0615979683471724,0
0.35000000000000003,0.05439703268700721,0,-0.057058609631246954,0
0.36,0.05469207675864599,0,-0.05216105542193391,0
0.37,0.05496899691481301,0,-0.046885761258637464,0
0.38,0.05522362911695738,0,-0.04121413524835786,0
0.39,0.05545153544042869,0,-0.03512832458623053,0
0.4,0.055647880653446447,0,-0.028612169165344866,0
0.41000000000000003,0.05580749357252684,0,-0.021651215947486296,0
0.42,0.05592488818429111,0,-0.014233297994397896,0
0.43,0.05599420550025876,0,-0.0063491184612119705,0
0.44,0.05600936367402687,0,0.0020079251965025766,0
0.45,0.055963923407594506,0,0.010840297250006107,0
0.46,0.05585130414715012,0,0.02014746874769817,0
0.47000000000000003,0.05566465286757181,0,0.029923527417043603,0
0.48,0.05539703875052461,0,0.04015920601401397,0
0.49,0.055041410445838115,0,0.050838791472768895,0
0.5,0.054590696499886494,0,0.061942597334735894,0
0.51,0.05403789913798995,0,0.07344376003828956,0
0.52,0.05337608271033311,0,0.08531049541692046,0
0.53,0.05259858437431145,0,0.09750351364992452,0
0.54,0.05169893759455326,0,0.10997749053983946,0
0.55,0.05067112143036709,0,0.1226796841281644,0
0.56,0.04950961177264327,0,0.13554980194249214,0
0.5700000000000001,0.048209233495733445,0,0.14852184026649085,0
0.58,0.04676587928730983,0,0.16152063902546177,0
0.59,0.04517580702964598,0,0.1744662829298824,0
0.6,0.04343639743962431,0,0.18727146744686216,0
0.61,0.0415458876848113,0,0.19984376773813556,0
0.62,0.039503680744972874,0,0.21208587377330942,0
0.63,0.03731031748524086,0,0.2238970530151501,0
0.64,0.03496751925366724,0,0.23517425036972123,0
0.65,0.03247845513040712,0,0.2458134577192521,0
0.66,0.02984755783857513,0,0.25571134652796623,0
0.67,0.027080698113777505,0,0.2647666796630068,0
0.68,0.02418524752661968,0,0.27288222074565005,0
0.6900000000000001,0.021169872426380194,0,0.27996587605433515,0
0.7000000000000001,0.01804475313653965,0,0.2859327416523678,0
0.71,0.014821382907239663,0,0.2907064254713102,0
0.72,0.011512465457352758,0,0.29421998887045253,0
0.73,0.008131987498958763,0,0.29641825613160544,0
0.74,0.004694898179783585,0,0.29725796272642796,0
0.75,0.0012171198914838629,0,0.29670957704619205,0
0.76,-0.0022847190990522587,0,0.2947578374072733,0
0.77,-0.005793421071648822,0,0.29140248442739447,0
0.78,-0.009291396856495156,0,0.28665970968101423,0
0.79,-0.012760889614010913,0,0.2805609657830712,0
0.8,-0.016184209624995016,0,0.2731555404111495,0
0.81,-0.01954386218452223,0,0.26450735064220965,0
0.8200000000000001,-0.02282294226289244,0,0.254698048885986,0
0.8300000000000001,-0.026005059430062778,0,0.24382218475850687,0
0.84,-0.02907494168601214,0,0.2319899032697661,0
0.85,-0.032018115694511906,0,0.21932123301686265,0
0.86,-0.03482167061664055,0,0.20594743293411052,0
0.87,-0.03747376039947661,0,0.19200534074719502,0
0.88,-0.03996438258955244,0,0.17763695125673964,0
0.89,-0.04228484523366563,0,0.16298456243463066,0
0.9,-0.044428380659446196,0,0.1481889591434629,0
0.91,-0.04638972724887346,0,0.13338573565855502,0
0.92,-0.04816543997945652,0,0.11870305187037763,0
0.93,-0.0497536840997307,0,0.10425915089246376,0
0.9400000000000001,-0.051154193139191055,0,0.09016077467882365,0
0.9500000000000001,-0.052368290550234745,0,0.07650162428999334,0
0.96,-0.05339854543631969,0,0.06336217381209029,0
0.97,-0.05424896028254441,0,0.050808672885870834,0
0.98,-0.054924461268545686,0,0.03889442008425895,0
0.99,-0.05543107597966081,0,0.027659314284342602,0
1.,-0.055775558471934064,0,0.017131387932945386,0
1.01,-0.05596532090999176,0,0.007327432328361705,0
1.02,-0.05600828031915084,0,-0.0017460966440638658,0
1.03,-0.05591267294193182,0,-0.01009172054830892,0
1.04,-0.05568695581875841,0,-0.017720263859969564,0
1.05,-0.05533966449934288,0,-0.024649900268410005,0
1.06,-0.05487930859936903,0,-0.03090490876023351,0
1.07,-0.05431427739958725,0,-0.036514930345505896,0
1.08,-0.05365274818929889,0,-0.04151381670339309,0
1.09,-0.05290265302435522,0,-0.04593827691005942,0
1.1,-0.052071580799405943,0,-0.04982691741172319,0
1.11,-0.051166800520964346,0,-0.05321867389189431,0
1.12,-0.050195201955911095,0,-0.056151825584582184,0
1.1300000000000001,-0.04916328255845185,0,-0.05866291585747477,0
1.1400000000000001,-0.04807719351958649,0,-0.06078595437715739,0
1.1500000000000001,-0.04694264872199333,0,-0.0625522352027924,0
1.16,-0.045765057478826525,0,-0.0639902368346349,0
1.17,-0.04454937728120126,0,-0.06512635316006321,0
1.18,-0.04330027582215792,0,-0.06598556296870221,0
1.19,-0.04202198217242998,0,-0.06659261183110592,0
1.2,-0.04071841596236671,0,-0.06697285271285557,0
1.21,-0.039393098686952614,0,-0.06715296839124278,0
1.22,-0.038049209884493916,0,-0.06716100767733764,0
1.23,-0.03668955716611971,0,-0.06702582466655835,0
1.24,-0.03531668819585179,0,-0.06677565049603729,0
1.25,-0.03393276831787721,0,-0.06643621300982948,0
1.26,-0.032539798589920996,0,-0.06602854045689538,0
1.27,-0.03113952378121034,0,-0.06556694840302149,0
1.28,-0.029733550525268892,0,-0.06505789792280395,0
1.29,-0.02832335335962987,0,-0.06450006683169246,0
1.3,-0.02691030808584218,0,-0.0638860809201474,0
1.31,-0.025495716254383995,0,-0.0632058524359085,0
1.32,-0.024080755964449637,0,-0.062451126857650946,0
1.33,-0.022666509578235645,0,-0.06162035069731169,0
1.34,-0.02125387256615188,0,-0.06072264104592708,0
1.35,-0.019843595480704954,0,-0.059779520694983754,0
1.36,-0.018436215885010068,0,-0.058823422144480254,0
1.37,-0.01703214332644701,0,-0.05789260311445939,0
1.3800000000000001,-0.01563166420353122,0,-0.05702334149579535,0
1.3900000000000001,-0.014235050220722384,0,-0.05624140329286852,0
1.4000000000000001,-0.012842582935635834,0,-0.05555607439002821,0
1.41,-0.0114546362025695,0,-0.05496013501951827,0
1.42,-0.0100715925954144,0,-0.054438531242102614,0
1.43,-0.008693850228538995,0,-0.05398558014891681,0
1.44,-0.0073216330664429025,0,-0.05362678400985674,0
1.45,-0.0059549786173239755,0,-0.053436625446304994,0
1.46,-0.004593738329028827,0,-0.0535402076318226,0
1.47,-0.0032376994207922384,0,-0.05408790955373409,0
1.48,-0.001886769772917166,0,-0.05520173813294942,0
1.49,-0.0005411397991135898,0,-0.05691116531994986,0
1.5,0.0007987997007900453,0,-0.0591230818542202,0
1.51,0.0021326364341400137,0,-0.06169018771392757,0
1.52,0.0034602791879008114,0,-0.06462706258814903,0
1.53,0.0047818522622827845,0,-0.06843335014687783,0
1.54,0.006096995279207503,0,-0.07431673852649504,0
1.55,0.007404272961360264,0,-0.08399317231542625,0
1.56,0.008701726607300585,0,-0.0992277686064589,0
1.57,0.00998560148667866,0,-0.12395712292790327,0
1.58,0.011228547841540582,0,-0.17418368921338961,0