# 20250122_110422
# epsilon:0.00012298(GeV^4)
# mass:0.28(GeV)
# sign:1
alpha,RePhi,ImPhi,ReDPhi,ImDPhi
0.,0.030678527730796587,0,-0.164923046796808,0
0.01,0.030691161426747198,0,-0.16539438426006728,0
0.02,0.030727501143704677,0,-0.165547347902073,0
0.03,0.030785968680333935,0,-0.16557319203557938,0
0.04,0.03086582985866498,0,-0.1655674390767768,0
0.05,0.03096688226068119,0,-0.16556925994998564,0
0.06,0.031089210120844295,0,-0.1655876217554318,0
0.07,0.031233033970894955,0,-0.1656175963249272,0
0.08,0.03139861211333285,0,-0.16564981475977028,0
0.09,0.03158619009652134,0,-0.1656753423615096,0
0.1,0.0317959708642554,0,-0.16568762613008514,0
0.11,0.03202811394483408,0,-0.16568272123113173,0
0.12,0.03228274755664639,0,-0.1656586635591486,0
0.13,0.032559983761397786,0,-0.16561446919521097,0
0.14,0.0328599228181688,0,-0.16554922624327698,0
0.15,0.033182690700916756,0,-0.16546120762640817,0
0.16,0.03352842377243292,0,-0.16534745940069667,0
0.17,0.03389729192411426,0,-0.16520341804771596,0
0.18,0.0342894786594938,0,-0.16502293875069146,0
0.19,0.03470518552086135,0,-0.16479835630859335,0
0.2,0.035144609036075566,0,-0.16452066737870646,0
0.21,0.03560793704373462,0,-0.1641798468501199,0
0.22,0.036095318948369454,0,-0.1637649012842999,0
0.23,0.0366068709395672,0,-0.16326426581064524,0
0.24,0.037142617944445955,0,-0.1626656252067692,0
0.25,0.03770252499553132,0,-0.16195621337646385,0
0.26,0.03828641981574365,0,-0.16112247462404541,0
0.27,0.03889403786256497,0,-0.16015022967692458,0
0.28,0.03952493090549913,0,-0.1590242408964733,0
0.29,0.04017852227524891,0,-0.1577283174639458,0
0.3,0.04085400468568928,0,-0.15624487766528647,0
0.31,0.04155041094610252,0,-0.15455506444138603,0
0.32,0.04226646880406313,0,-0.152638446014946,0
0.33,0.043000702041545366,0,-0.15047315074348114,0
0.34,0.0437512977759129,0,-0.14803577396884057,0
0.35000000000000003,0.044516161689956237,0,-0.14530159665820644,0
0.36,0.045292837116533445,0,-0.14224468107415864,0
0.37,0.04607849940830708,0,-0.13883820551166745,0
0.38,0.046869943900932444,0,-0.13505468060346862,0
0.39,0.04766351567797672,0,-0.13086643176625226,0
0.4,0.04845517705976824,0,-0.12624580777322614,0
0.41000000000000003,0.04924036910399644,0,-0.12116586796651027,0
0.42,0.050014170263671526,0,-0.11560040996760226,0
0.43,0.05077106698349161,0,-0.10952502472740698,0
0.44,0.05150522106789051,0,-0.10291666526948266,0
0.45,0.052210225500455495,0,-0.0957551086899552,0
0.46,0.052879318704334065,0,-0.08802237162939916,0
0.47000000000000003,0.05350527487387985,0,-0.07970404930187391,0
0.48,0.054080497796839,0,-0.07078907726702886,0
0.49,0.05459705698485524,0,-0.061270577002977146,0
0.5,0.05504667921152831,0,-0.05114635532512577,0
0.51,0.05542089125319815,0,-0.04041891308277606,0
0.52,0.05571096729014554,0,-0.029097011733266825,0
0.53,0.05590810588099847,0,-0.017194586557895693,0
0.54,0.05600341772228062,0,-0.004733517396639264,0
0.55,0.055988039914306356,0,0.008258600251107718,0
0.56,0.05585327354936879,0,0.021744884188502015,0
0.5700000000000001,0.05559055481915696,0,0.03568199318766834,0
0.58,0.05519175348912029,0,0.050016453353646455,0
0.59,0.05464901427624514,0,0.06468795322519404,0
0.6,0.053955226820159706,0,0.0796257813317103,0
0.61,0.05310370471480194,0,0.09475254058553059,0
0.62,0.05208883872900628,0,0.10998108893827586,0
0.63,0.050905601456217274,0,0.1252184002471762,0
0.64,0.049550370587992665,0,0.140363409818989,0
0.65,0.04802026921049079,0,0.15531065931311192,0
0.66,0.046314107206516755,0,0.16994933731423947,0
0.67,0.04443160061210988,0,0.184166330621563,0
0.68,0.04237435568557794,0,0.197846588434157,0
0.6900000000000001,0.04014502590481898,0,0.21087527602528333,0
0.7000000000000001,0.03774825031631054,0,0.2231394100769522,0
0.71,0.03518981760871209,0,0.2345289820634913,0
0.72,0.03247747213839761,0,0.2449396452298589,0
0.73,0.02962015164666739,0,0.2542729010087968,0
0.74,0.026628590985439064,0,0.26243948962132946,0
0.75,0.02351468518167344,0,0.26935893538893163,0
0.76,0.020291850541364176,0,0.27496319385371465,0
0.77,0.016974539220871353,0,0.2791959564881421,0
0.78,0.013578354618362034,0,0.28201602937214304,0
0.79,0.01011971250331067,0,0.28339675853293134,0
0.8,0.006615747631312811,0,0.28332856293414505,0
0.81,0.003084084838765414,0,0.28181867048157616,0
0.8200000000000001,-0.0004573891139353361,0,0.2788922480160744,0
0.8300000000000001,-0.0039907067824459,0,0.2745924062159636,0
0.84,-0.007498081078259229,0,0.2689795153044794,0
0.85,-0.01096211450654338,0,0.262131246276397,0
0.86,-0.014365979861966912,0,0.2541399781984471,0
0.87,-0.017693728956685983,0,0.2451125779929349,0
0.88,-0.020930290561022448,0,0.23516624115649373,0
0.89,-0.024061927396606966,0,0.2244278048538143,0
0.9,-0.02707598288063489,0,0.21302878502205944,0
0.91,-0.029961498820398336,0,0.20110421781850843,0
0.92,-0.032708692648756546,0,0.18878790224819084,0
0.93,-0.03530970854572909,0,0.17621094621059283,0
0.9400000000000001,-0.03775786034691202,0,0.1634981670653167,0
0.9500000000000001,-0.040048457247255136,0,0.15076659218359756,0
0.96,-0.04217788980378932,0,0.13812361786916622,0
0.97,-0.044144455683485746,0,0.1256656339210096,0
0.98,-0.04594738802562059,0,0.1134780333387739,0
0.99,-0.047587608195911846,0,0.10163396800074317,0
1.,-0.0490667952533566,0,0.09019584154453457,0
1.01,-0.05038800742830834,0,0.0792140850285702,0
1.02,-0.05155487353184345,0,0.06872952711404985,0
1.03,-0.052572047444422294,0,0.05877209002585433,0
1.04,-0.053444573984899636,0,0.04936346714079226,0
1.05,-0.05417816646693124,0,0.040515793238487544,0
1.06,-0.05477876802457664,0,0.03223427914743843,0
1.07,-0.055252667081950396,0,0.02451608269176209,0
1.08,-0.05560624545777008,0,0.017352795812015223,0
1.09,-0.05584596758667103,0,0.010729783123787348,0
1.1,-0.05597828266282131,0,0.004628529245576856,0
1.11,-0.05600953439131806,0,-0.0009734529699951003,0
1.12,-0.05594597185332034,0,-0.0061004847710358365,0
1.1300000000000001,-0.05579362304578619,0,-0.010778444979111583,0
1.1400000000000001,-0.05555836937879612,0,-0.01503308432894976,0
1.1500000000000001,-0.05524581138881228,0,-0.018889822797262402,0
1.16,-0.054861370956677,0,-0.022372828035096867,0
1.17,-0.054410161609967166,0,-0.025505285937241325,0
1.18,-0.05389709357931365,0,-0.028309353253253386,0
1.19,-0.053326755149198025,0,-0.030806903286411655,0
1.2,-0.052703503235281175,0,-0.03302000521945835,0
1.21,-0.05203136906003623,0,-0.03497160926510872,0
1.22,-0.05131412175579887,0,-0.036685785015480345,0
1.23,-0.050555219934196025,0,-0.03818757500681276,0
1.24,-0.04975784622655684,0,-0.03950227494314553,0
1.25,-0.04892491603675327,0,-0.04065413615891517,0
1.26,-0.048059065169293626,0,-0.04166476129976683,0
1.27,-0.04716277385456001,0,-0.042551400921276045,0
1.28,-0.046238266671235574,0,-0.04332561829452346,0
1.29,-0.045287683508839854,0,-0.04399292203254655,0
1.3,-0.044312970733728335,0,-0.04455345596926496,0
1.31,-0.043316018407144795,0,-0.04500415923337893,0
1.32,-0.042298542088420266,0,-0.04534209607757426,0
1.33,-0.041262162804432734,0,-0.0455683190446578,0
1.34,-0.040208301209218804,0,-0.04569145905541279,0
1.35,-0.039138255463115126,0,-0.04572976714875526,0
1.36,-0.03805308146888471,0,-0.04571073563694008,0
1.37,-0.036953719830294676,0,-0.045667672314328465,0
1.3800000000000001,-0.035840926625385565,0,-0.04563361228522722,0
1.3900000000000001,-0.03471543826950597,0,-0.04563441394700736,0
1.4000000000000001,-0.03357799096134018,0,-0.04568306792892147,0
1.41,-0.03242928754945489,0,-0.04577868607690345,0
1.42,-0.03127005021437114,0,-0.04591316584321634,0
1.43,-0.030100971173541966,0,-0.04608553602610608,0
1.44,-0.028922600491571505,0,-0.04632135058629014,0
1.45,-0.027735286503318482,0,-0.04668986318787343,0
1.46,-0.02653919223881242,0,-0.04730788372612795,0
1.47,-0.02533438727203258,0,-0.04831951806391287,0
1.48,-0.02412100875030242,0,-0.049848825525375326,0
1.49,-0.02289940255370857,0,-0.05193981002474214,0
1.5,-0.021670107671664766,0,-0.05452430783675557,0
1.51,-0.02043364573284665,0,-0.057480022755333114,0
1.52,-0.019190272636888085,0,-0.06083156463557314,0
1.53,-0.01794003598638312,0,-0.06506554504741216,0
1.54,-0.016683344211327254,0,-0.07136740553074035,0
1.55,-0.015421717613090708,0,-0.08146143342620578,0
1.56,-0.014157186578387826,0,-0.09718557603892126,0
1.57,-0.01289362259039305,0,-0.1225917419584486,0
1.58,-0.011658544867871493,0,-0.17389840233966525,0