# 20250122_110422
# epsilon:0.00012298(GeV^4)
# mass:0.28(GeV)
# sign:1
alpha,RePhi,ImPhi,ReDPhi,ImDPhi
0.,0.033136597205367935,0,-0.15892382446174097,0
0.01,0.03314877054538901,0,-0.15937461671377817,0
0.02,0.033183787077350486,0,-0.15951220819621295,0
0.03,0.03324012065522256,0,-0.15952130245718676,0
0.04,0.03331705762716662,0,-0.159494106738503,0
0.05,0.03341439458029898,0,-0.15946835735435505,0
0.06,0.03353220245877868,0,-0.15945258507349844,0
0.07,0.03367068050876316,0,-0.15944187921074887,0
0.08,0.033830060844462675,0,-0.15942702513154602,0
0.09,0.03401056235738801,0,-0.1593992162601176,0
0.1,0.03421235858153309,0,-0.15935193500786524,0
0.11,0.03443557810563976,0,-0.15928116821561192,0
0.12,0.03468031547888379,0,-0.15918479116630063,0
0.13,0.03494664997098859,0,-0.15906161841050107,0
0.14,0.035234641017627355,0,-0.15891047548617912,0
0.15,0.03554437149162861,0,-0.15872939343833875,0
0.16,0.035875928509464736,0,-0.15851517459180572,0
0.17,0.03622942771743083,0,-0.15826302734040792,0
0.18,0.03660499187687361,0,-0.1579666168314267,0
0.19,0.03700275554953138,0,-0.15761808913636383,0
0.2,0.037422841556494425,0,-0.15720828565901357,0
0.21,0.03786535782261177,0,-0.15672702105529238,0
0.22,0.03833036685794333,0,-0.15616315510300036,0
0.23,0.03881789151266,0,-0.1555049645580159,0
0.24,0.03932785790229965,0,-0.15473998301970207,0
0.25,0.03986012333252414,0,-0.15385527870784613,0
0.26,0.04041440594958045,0,-0.15283714675641608,0
0.27,0.04099031877831319,0,-0.15167125031331277,0
0.28,0.04158729450302597,0,-0.1503422364089612,0
0.29,0.04220461879687889,0,-0.1488338058949832,0
0.3,0.04284135867029763,0,-0.14712834577063835,0
0.31,0.0434963928740742,0,-0.14520700180048715,0
0.32,0.04416831476505501,0,-0.14304945494323024,0
0.33,0.04485548998052097,0,-0.14063401889971963,0
0.34,0.045555960896976805,0,-0.13793760773159314,0
0.35000000000000003,0.04626747024000112,0,-0.13493593698197273,0
0.36,0.04698741420302484,0,-0.13160364768257055,0
0.37,0.04771280698251731,0,-0.127914656233222,0
0.38,0.04844029745175891,0,-0.12384236110102619,0
0.39,0.04916608074753524,0,-0.11936016448054779,0
0.4,0.0498859803017951,0,-0.11444164618707865,0
0.41000000000000003,0.050595307517612605,0,-0.10906130042657014,0
0.42,0.05128901064282053,0,-0.10319453796421181,0
0.43,0.05196149300370426,0,-0.09681869344574212,0
0.44,0.05260681768287669,0,-0.08991273831897965,0
0.45,0.05321850595166117,0,-0.08245860955702754,0
0.46,0.05378977423133219,0,-0.07444058022687047,0
0.47000000000000003,0.05431334335167461,0,-0.06584692437450969,0
0.48,0.054781680897447914,0,-0.05666891344766275,0
0.49,0.05518682842428603,0,-0.046903151363992555,0
0.5,0.0555206628648259,0,-0.036549594200151955,0
0.51,0.05577476356865175,0,-0.025614898207301395,0
0.52,0.05594061226630934,0,-0.014110026486453549,0
0.53,0.05600957539677691,0,-0.002053427644662197,0
0.54,0.05597301033800814,0,0.010530646393134582,0
0.55,0.055822365772092014,0,0.02361011920569916,0
0.56,0.055549241938779005,0,0.037145333157571285,0
0.5700000000000001,0.05514549295370879,0,0.051088957407504826,0
0.58,0.054603399599441375,0,0.06538445593302988,0
0.59,0.05391559764166168,0,0.07996819431987544,0
0.6,0.05307552534419741,0,0.09476646199736584,0
0.61,0.052077043267685794,0,0.109699314087268,0
0.62,0.050915218356034186,0,0.1246771783073843,0
0.63,0.049585647648007984,0,0.13960527973347112,0
0.64,0.04808544975503765,0,0.1543812143853856,0
0.65,0.04641249472900684,0,0.16889866412108534,0
0.66,0.044566310259928424,0,0.18304687025557376,0
0.67,0.042547524438266655,0,0.19671302688577538,0
0.68,0.0403583549541188,0,0.20978349054358753,0
0.6900000000000001,0.038002537369426555,0,0.22214532407027326,0
0.7000000000000001,0.03548517113448627,0,0.23368800879620114,0
0.71,0.03281324170101594,0,0.24430542299847596,0
0.72,0.02999481381026497,0,0.2538963885388985,0
0.73,0.02704001979697722,0,0.2623684253492,0
0.74,0.02395983430931005,0,0.26963598710500036,0
0.75,0.020767194259871037,0,0.27562643021403516,0
0.76,0.017475747539855473,0,0.2802761526563266,0
0.77,0.01410070541725623,0,0.2835377010308776,0
0.78,0.010657920734512152,0,0.2853754146544867,0
0.79,0.007164235757847251,0,0.28577151549436797,0
0.8,0.0036370015606982187,0,0.28472328973040184,0
0.81,0.00009397950060234138,0,0.2822459336026931,0
0.8200000000000001,-0.0034468708865390257,0,0.2783726645769809,0
0.8300000000000001,-0.00696763254301307,0,0.27315303572006533,0
0.84,-0.010450709959723924,0,0.2666559787026614,0
0.85,-0.013878834687921664,0,0.25896387406781946,0
0.86,-0.017235704523628298,0,0.2501770864298135,0
0.87,-0.020505524982780958,0,0.24040558959556804,0
0.88,-0.023674053500329487,0,0.22977282887237843,0
0.89,-0.02672779920007677,0,0.21840747660471954,0
0.9,-0.029655029078760015,0,0.20644455795540348,0
0.91,-0.032445154911065054,0,0.19401977564273915,0
0.92,-0.035089455201194435,0,0.18126805585855676,0
0.93,-0.03758049822349745,0,0.16831967331938136,0
0.9400000000000001,-0.03991267022741758,0,0.15529845541140494,0
0.9500000000000001,-0.042081792477906305,0,0.14231939147820508,0
0.96,-0.04408524617557,0,0.12948728718400004,0
0.97,-0.04592191862751674,0,0.11689554729477544,0
0.98,-0.04759190835940878,0,0.10462599348988652,0
0.99,-0.04909674748273846,0,0.09274815819286006,0
1.,-0.05043886865802784,0,0.08132036336526101,0
1.01,-0.05162188783061223,0,0.07038915682313363,0
1.02,-0.05265009819823966,0,0.05999101012417752,0
1.03,-0.05352861457853375,0,0.050152052912459555,0
1.04,-0.054263052305884206,0,0.04088949854053975,0
1.05,-0.05485949348914611,0,0.03221199811446068,0
1.06,-0.05532433521031333,0,0.024120369950696295,0
1.07,-0.0556641680625516,0,0.016608725808307696,0
1.08,-0.05588569688774054,0,0.009664590997927491,0
1.09,-0.0559956421961038,0,0.0032707975211213537,0
1.1,-0.056000651055064556,0,-0.002594513085079337,0
1.11,-0.055907287493510434,0,-0.007955827366476044,0
1.12,-0.055721899709201016,0,-0.012839924622376394,0
1.1300000000000001,-0.05545069347795991,0,-0.01727405160977303,0
1.1400000000000001,-0.055099580781714064,0,-0.021285573810431755,0
1.1500000000000001,-0.054674297937303246,0,-0.024900719886900832,0
1.16,-0.05418024906677264,0,-0.028144656429328802,0
1.17,-0.05362264554683455,0,-0.031041064346485264,0
1.18,-0.0530063439403858,0,-0.033612824818112036,0
1.19,-0.05233599580817332,0,-0.035882298823510524,0
1.2,-0.05161587814772255,0,-0.03787229389319505,0
1.21,-0.05085005105339979,0,-0.03960641640099947,0
1.22,-0.050042188917614056,0,-0.04110954677527129,0
1.23,-0.04919574202535978,0,-0.04240744833150038,0
1.24,-0.048313802537505696,0,-0.04352606714857149,0
1.25,-0.04739924124583561,0,-0.04449008550778209,0
1.26,-0.04645463062465163,0,-0.04532123315855832,0
1.27,-0.045482362829097095,0,-0.04603653299964468,0
1.28,-0.04448462505163806,0,-0.04664699547342397,0
1.29,-0.04346346121477063,0,-0.047157258918392606,0
1.3,-0.0424207938736068,0,-0.04756647116667057,0
1.31,-0.04135841414560529,0,-0.04787061148719859,0
1.32,-0.040278018242708866,0,-0.04806599460861508,0
1.33,-0.03918113470647328,0,-0.048153343554232876,0
1.34,-0.038069169748552255,0,-0.04814142710336964,0
1.35,-0.036943313218384545,0,-0.04804912682014438,0
1.36,-0.03580461176456617,0,-0.04790484424454587,0
1.37,-0.034653890946842666,0,-0.04774287958981452,0
1.3800000000000001,-0.03349190104472583,0,-0.047597076745955834,0
1.3900000000000001,-0.032319309377549336,0,-0.047493476669982576,0
1.4000000000000001,-0.031136775453652236,0,-0.04744464011014051,0
1.41,-0.02994498099785302,0,-0.047448887045835705,0
1.42,-0.0287446198538955,0,-0.047497110822665424,0
1.43,-0.027536317272551788,0,-0.047587700520002524,0
1.44,-0.026320619254525907,0,-0.04774644556828844,0
1.45,-0.025097837061578424,0,-0.04804397384306131,0
1.46,-0.02386808176366953,0,-0.04859933931102511,0
1.47,-0.0226313845967864,0,-0.04955888596663901,0
1.48,-0.02138785858221448,0,-0.05104760073612562,0
1.49,-0.020137835741046016,0,-0.05310797360067624,0
1.5,-0.018881836240496677,0,-0.05566785389136651,0
1.51,-0.01762035577393819,0,-0.05860042322534619,0
1.52,-0.016353654657310604,0,-0.06192918463147945,0
1.53,-0.015081739267314305,0,-0.06614723011562962,0
1.54,-0.013805033857174746,0,-0.07245448703493822,0
1.55,-0.012525055723296997,0,-0.08259085876337723,0
1.56,-0.011243861589967574,0,-0.09840244352869304,0
1.57,-0.009965286474638164,0,-0.1239651390018724,0
1.58,-0.008716450146629175,0,-0.17562645695566398,0