# 20250117_113521
# epsilon:0.00012298(GeV^4)
# mass:0.14(GeV)
# sign:1
alpha,RePhi,ImPhi,ReDPhi,ImDPhi
0.,0.10627353746230087,0,-0.062335052469631655,0
0.01,0.10627830482340014,0,-0.06249898994567313,0
0.02,0.1062920361941419,0,-0.06251572452100095,0
0.03,0.10631410591531894,0,-0.06245934811396146,0
0.04,0.10634421309255865,0,-0.06236670156982506,0
0.05,0.10638224121728648,0,-0.06225268812299455,0
0.06,0.10642818191645244,0,-0.062120359219100155,0
0.07,0.1064820657490061,0,-0.061967336600829405,0
0.08,0.10654392417283162,0,-0.06178951637159364,0
0.09,0.10661377201176604,0,-0.0615829482918509,0
0.1,0.10669159597559283,0,-0.06134459734791355,0
0.11,0.10677735711079572,0,-0.061072410630065674,0
0.12,0.10687098899771792,0,-0.060765064070965005,0
0.13,0.1069724071264711,0,-0.06042157205381249,0
0.14,0.10708151135017338,0,-0.06004087695120092,0
0.15,0.10719819358517309,0,-0.059621552493220493,0
0.16,0.10732233622962765,0,-0.059161601942212615,0
0.17,0.10745381390812074,0,-0.05865833123985658,0
0.18,0.10759248979745535,0,-0.05810839620413079,0
0.19,0.10773820740822508,0,-0.05750774340282173,0
0.2,0.10789080243388395,0,-0.056851860512127664,0
0.21,0.10805006224361577,0,-0.05613575726018303,0
0.22,0.10821574981887941,0,-0.05535403284914908,0
0.23,0.10838759319361788,0,-0.05450109661939175,0
0.24,0.10856523786097703,0,-0.05357106406007692,0
0.25,0.10874829235461381,0,-0.052557876222989915,0
0.26,0.10893627368693355,0,-0.051455211006252714,0
0.27,0.10912864487318082,0,-0.050256520531187676,0
0.28,0.10932475125465202,0,-0.0489549380277998,0
0.29,0.10952387442416164,0,-0.04754327687198005,0
0.3,0.10972515548038582,0,-0.046013961091768175,0
0.31,0.10992766007881719,0,-0.04435902973381209,0
0.32,0.11013028943666758,0,-0.04257012312000243,0
0.33,0.11033186770741608,0,-0.040638499696218654,0
0.34,0.11053100155955414,0,-0.03855513773053895,0
0.35000000000000003,0.11072622557297443,0,-0.03631070979981468,0
0.36,0.11091588783024033,0,-0.03389578535530195,0
0.37,0.11109812918361703,0,-0.03130094007024764,0
0.38,0.11127101780748415,0,-0.028516738047520286,0
0.39,0.11143233847608201,0,-0.025534133540542875,0
0.4,0.11157978809722857,0,-0.022344294461042247,0
0.41000000000000003,0.11171085384674698,0,-0.018938974659472658,0
0.42,0.11182281224597462,0,-0.015310617988530539,0
0.43,0.11191285844041672,0,-0.011452192785052844,0
0.44,0.11197791131676015,0,-0.007357832114169783,0
0.45,0.11201481482664077,0,-0.0030223329443436323,0
0.46,0.11202023302910785,0,0.001558340905756655,0
0.47000000000000003,0.11199066654919536,0,0.006387019367297275,0
0.48,0.11192255625261349,0,0.011465647437617832,0
0.49,0.11181215433123462,0,0.01679438532564652,0
0.5,0.1116556696733159,0,0.022372364724622073,0
0.51,0.11144923167857393,0,0.028197246497630696,0
0.52,0.11118888658984534,0,0.03426461348031037,0
0.53,0.11087067288955653,0,0.040568857082555976,0
0.54,0.11049059538748111,0,0.04710218416187375,0
0.55,0.11004468146034024,0,0.05385455335048666,0
0.56,0.10952896490450648,0,0.060814377073634185,0
0.5700000000000001,0.10893957957670851,0,0.06796722775150238,0
0.58,0.10827274780437608,0,0.07529642674097006,0
0.59,0.10752473881986935,0,0.08278338205850874,0
0.6,0.10669210901219409,0,0.09040636627455749,0
0.61,0.10577151669329474,0,0.09814169342943196,0
0.62,0.10475978618597011,0,0.1059635814973564,0
0.63,0.1036542032459549,0,0.11384347404952838,0
0.64,0.1024521375014296,0,0.1217514002103971,0
0.65,0.10115134503381411,0,0.12965547977243744,0
0.66,0.09975012305834403,0,0.1375219966836515,0
0.67,0.09824686669569827,0,0.14531642149057214,0
0.68,0.09664062348105694,0,0.1530029154279162,0
0.6900000000000001,0.09493084912065376,0,0.1605449328672329,0
0.7000000000000001,0.09311736440068284,0,0.16790550878616473,0
0.71,0.09120072350863317,0,0.17504729710290245,0
0.72,0.0891816944877312,0,0.18193296767693093,0
0.73,0.08706185612194674,0,0.18852542163416808,0
0.74,0.08484312803309176,0,0.19478790030262866,0
0.75,0.08252800280334725,0,0.20068440148906352,0
0.76,0.08011961682412995,0,0.20617998758812722,0
0.77,0.07762141304210016,0,0.21124086934671935,0
0.78,0.0750375481706976,0,0.21583531065358227,0
0.79,0.07237250141551657,0,0.21993358963341283,0
0.8,0.06963135808760545,0,0.22350908169441175,0
0.81,0.0668195033483272,0,0.22653831204987285,0
0.8200000000000001,0.06394283480090945,0,0.2290021971544775,0
0.8300000000000001,0.061007499894903,0,0.23088602769631897,0
0.84,0.05802004337684069,0,0.2321807209353642,0
0.85,0.05498718884411783,0,0.23288261778509203,0
0.86,0.051915915863690126,0,0.23299453032408798,0
0.87,0.04881329681692018,0,0.23252521464584364,0
0.88,0.0456865016766042,0,0.23149001660382318,0
0.89,0.04254269911689262,0,0.22990992902898919,0
0.9,0.03938897296188857,0,0.22781185920036384,0
0.91,0.03623233975587927,0,0.22522702326951385,0
0.92,0.03307952994751773,0,0.2221911084849446,0
0.93,0.029937138236919007,0,0.21874229676222032,0
0.9400000000000001,0.02681133901903275,0,0.21492114767775072,0
0.9500000000000001,0.023708064260626504,0,0.21076889251985778,0
0.96,0.020632772033303184,0,0.20632700288411862,0
0.97,0.017590535723487,0,0.20163618404468764,0
0.98,0.014585993428016825,0,0.1967358573971866,0
0.99,0.01162324307641922,0,0.19166385958788776,0
1.,0.00870603516414727,0,0.1864561162073065,0
1.01,0.005837464815900958,0,0.18114678740299525,0
1.02,0.0030203575265986627,0,0.17576822029821987,0
1.03,0.00025685778307940014,0,0.17035116815916232,0
1.04,-0.002451139453754905,0,0.16492487110103593,0
1.05,-0.005102328258741464,0,0.1595170508149983,0
1.06,-0.007695681601363044,0,0.1541538453514998,0
1.07,-0.010230637099075584,0,0.14885945772858333,0
1.08,-0.012706894159896315,0,0.14365581685150555,0
1.09,-0.015124503121327921,0,0.13856198379156628,0
1.1,-0.017483737925384425,0,0.13359368404166583,0
1.11,-0.019785112651479385,0,0.12876279958538736,0
1.12,-0.02202931361258594,0,0.12407714102203565,0
1.1300000000000001,-0.02421717715889865,0,0.11954045237290291,0
1.1400000000000001,-0.026349659802324704,0,0.11515278325439111,0
1.1500000000000001,-0.028427808121491354,0,0.11091125058521288,0
1.16,-0.030452754121359858,0,0.10681108353795944,0
1.17,-0.03242568887258042,0,0.10284696123554,0
1.18,-0.034347882445348914,0,0.09901430881552646,0
1.19,-0.03622065178334447,0,0.09531054939924474,0
1.2,-0.038045404912358756,0,0.0917358397062688,0
1.21,-0.03982359044964769,0,0.08829338692042073,0
1.22,-0.041556747278552436,0,0.08498889065844334,0
1.23,-0.043246444014890466,0,0.08182945998746968,0
1.24,-0.044894294490554,0,0.07882174112205559,0
1.25,-0.04650191959838884,0,0.07596991743248886,0
1.26,-0.048070898935266546,0,0.0732736197933134,0
1.27,-0.049602782272863855,0,0.07072650270617942,0
1.28,-0.051098999293653004,0,0.06831570824041444,0
1.29,-0.05256091063170832,0,0.06602273917842236,0
1.3,-0.05398974569069302,0,0.06382568967990582,0
1.31,-0.05538665413466026,0,0.061702746832798194,0
1.32,-0.05675272100852969,0,0.05963630959107462,0
1.33,-0.05808899614862913,0,0.05761694789518203,0
1.34,-0.05939654237338933,0,0.055646066237105496,0
1.35,-0.06067646598499835,0,0.05373637581515959,0
1.36,-0.06192988969128591,0,0.05190952538291388,0
1.37,-0.0631579592667169,0,0.05019098755203914,0
1.3800000000000001,-0.06436179259040574,0,0.04860316334630136,0
1.3900000000000001,-0.06554244750614445,0,0.04715861575687137,0
1.4000000000000001,-0.06670083256247371,0,0.04585596195330369,0
1.41,-0.06783775135634672,0,0.04468094756128473,0
1.42,-0.06895388154277775,0,0.043614260822658985,0
1.43,-0.07004988923955867,0,0.04264537819205871,0
1.44,-0.0711264579357493,0,0.04178886696818411,0
1.45,-0.07218441213471403,0,0.041096341231769154,0
1.46,-0.07322462459006095,0,0.04065544278111516,0
1.47,-0.07424797881463888,0,0.040568766214768945,0
1.48,-0.07525520056908779,0,0.040913481690602424,0
1.49,-0.07624677398974956,0,0.041696045652359896,0
1.5,-0.07722299218055459,0,0.04283449632674367,0
1.51,-0.0781841045948481,0,0.0442121707883825,0
1.52,-0.0791306014229845,0,0.04583242791142347,0
1.53,-0.08006305432233941,0,0.04803927103707246,0
1.54,-0.0809817033530004,0,0.05165565305996944,0
1.55,-0.08188603214391181,0,0.05782421965596343,0
1.56,-0.08277508455104561,0,0.0676810119935564,0
1.57,-0.08364684156451155,0,0.0837938734129557,0
1.58,-0.08448323416421086,0,0.11675400991614815,0