# 20250122_111354
# epsilon:0.00012298(GeV^4)
# mass:0.42(GeV)
# sign:1
alpha,RePhi,ImPhi,ReDPhi,ImDPhi
0.,0.03442643803542868,0,-0.07634453582010699,0
0.01,0.034432279644567035,0,-0.07650256514996259,0
0.02,0.034449072667312015,0,-0.07639971032719826,0
0.03,0.034476006385622114,0,-0.07613165623942028,0
0.04,0.0345126351031664,0,-0.07574524580669525,0
0.05,0.034558715698854464,0,-0.07525823598183734,0
0.06,0.03461409931510109,0,-0.07467253795390119,0
0.07,0.03467865211682233,0,-0.07398266091400606,0
0.08,0.0347522106897539,0,-0.07318054697441248,0
0.09,0.03483455034014123,0,-0.0722581022762273,0
0.1,0.034925379014306424,0,-0.07120812238815628,0
0.11,0.0350243230826707,0,-0.07002441821841675,0
0.12,0.03513093477133539,0,-0.06870135375028204,0
0.13,0.035244696104079015,0,-0.06723327171475858,0
0.14,0.03536502013263569,0,-0.06561394760796466,0
0.15,0.03549125184147665,0,-0.06383614669910308,0
0.16,0.03562265225639464,0,-0.06189123139454206,0
0.17,0.035758422189499484,0,-0.05976925407336998,0
0.18,0.035897650724700796,0,-0.057458754224477736,0
0.19,0.036039333999985816,0,-0.05494674575364778,0
0.2,0.036182345670081335,0,-0.05221922251846327,0
0.21,0.03632539770730942,0,-0.04926091743870444,0
0.22,0.03646708362998889,0,-0.04605577495329092,0
0.23,0.0366057513013344,0,-0.042586798427931054,0
0.24,0.036739631205782684,0,-0.03883636098451318,0
0.25,0.03686663045575652,0,-0.03478617572317666,0
0.26,0.03698452123781846,0,-0.03041735164267328,0
0.27,0.03709070219238915,0,-0.025710597075247543,0
0.28,0.0371823991090838,0,-0.020646049374079163,0
0.29,0.03725643516181333,0,-0.01520381001360278,0
0.3,0.037309312831395394,0,-0.009363811197440829,0
0.31,0.03733736341539036,0,-0.0031057957700442135,0
0.32,0.0373362957973814,0,0.003589030951125874,0
0.33,0.037301657021793125,0,0.010739408068806014,0
0.34,0.03722858458338766,0,0.018362158434169173,0
0.35000000000000003,0.037111776193909415,0,0.02647165556703021,0
0.36,0.03694565735790996,0,0.03507991183321481,0
0.37,0.036724191667623717,0,0.04419455789683426,0
0.38,0.036441132714771986,0,0.05381978542835583,0
0.39,0.036089817290039135,0,0.06395294738482424,0
0.4,0.03566342764675108,0,0.07458680873271177,0
0.41000000000000003,0.03515489861008151,0,0.08570559845047074,0
0.42,0.034557072674144027,0,0.09728639814983887,0
0.43,0.033862729366066116,0,0.10929712902675143,0
0.44,0.03306473959813051,0,0.12169596973624115,0
0.45,0.032156111379521235,0,0.1344314668449308,0
0.46,0.031130210198917235,0,0.14744015322843101,0
0.47000000000000003,0.029980769129503253,0,0.16064838900056694,0
0.48,0.028702181275511114,0,0.1739694983058622,0
0.49,0.027289546262074655,0,0.18730548066762412,0
0.5,0.025738861108858854,0,0.20054589022931057,0
0.51,0.024047307027948033,0,0.21356786972889347,0
0.52,0.02221314839735485,0,0.22623761131834358,0
0.53,0.02023632897648145,0,0.23840928001100395,0
0.54,0.018118161489323683,0,0.24992793758376552,0
0.55,0.015861926229211204,0,0.26062931100321063,0
0.56,0.013472767227960043,0,0.27034283361457,0
0.5700000000000001,0.0109578188302952,0,0.27889310281272517,0
0.58,0.008326639704767751,0,0.28610345017025757,0
0.59,0.005590717865940431,0,0.29179811678663264,0
0.6,0.002764269424509895,0,0.2958074234870552,0
0.61,-0.00013646674379400622,0,0.29797011238621074,0
0.62,-0.0030928218105531957,0,0.2981387617216299,0
0.63,-0.006083854056234607,0,0.2961841543327377,0
0.64,-0.009086592143415555,0,0.2919993304535896,0
0.65,-0.012076210922937923,0,0.28550343926429955,0
0.66,-0.015026213588808455,0,0.27664667033361906,0
0.67,-0.017908821521384552,0,0.2654134558084039,0
0.68,-0.020695367767947885,0,0.2518243512888302,0
0.6900000000000001,-0.023356673172258608,0,0.23593854635977252,0
0.7000000000000001,-0.025863554322919185,0,0.21785611691626336,0
0.71,-0.02818734673981855,0,0.19771683012500957,0
0.72,-0.030300368436941002,0,0.17569921438845207,0
0.73,-0.03217651706476384,0,0.1520201290086978,0
0.74,-0.033791833748218855,0,0.12693147604880112,0
0.75,-0.03512490995304127,0,0.10071556601527624,0
0.76,-0.036157365397970584,0,0.07368111883862859,0
0.77,-0.03687443650290611,0,0.04615825418211739,0
0.78,-0.037265184279227266,0,0.018491054615541222,0
0.79,-0.03732270333053795,0,-0.00896916361693631,0
0.8,-0.03704449046521234,0,-0.035871054870936434,0
0.81,-0.036432540915841825,0,-0.061871704040056076,0
0.8200000000000001,-0.0354931682670144,0,-0.08664454307171256,0
0.8300000000000001,-0.034236966262372374,0,-0.10988683219492924,0
0.84,-0.03267877796116994,0,-0.13132785520912146,0
0.85,-0.030837201788266908,0,-0.15073513069270933,0
0.86,-0.028734186068419133,0,-0.16791920778620165,0
0.87,-0.02639469539962275,0,-0.1827384096576011,0
0.88,-0.023846152100185064,0,-0.19510152566414052,0
0.89,-0.021117775495689432,0,-0.20496718619271634,0
0.9,-0.01824006256816058,0,-0.21234271673191074,0
0.91,-0.01524419399081668,0,-0.2172824012256912,0
0.92,-0.012161391686540284,0,-0.21988192753844762,0
0.93,-0.009022413937591333,0,-0.22027233071697935,0
0.9400000000000001,-0.0058570371754168935,0,-0.21861435812583932,0
0.9500000000000001,-0.002693546653132994,0,-0.21509174672165152,0
0.96,0.0004415716114690585,0,-0.20990347202609433,0
0.97,0.003523911321068856,0,-0.20325756168948597,0
0.98,0.006531492503724759,0,-0.1953656745580737,0
0.99,0.009444848446836823,0,-0.18643746231974304,0
1.,0.012247036425508695,0,-0.17667626242812395,0
1.01,0.014923720331706178,0,-0.1662759258652637,0
1.02,0.01746318371327137,0,-0.15541810404215822,0
1.03,0.01985611160131397,0,-0.14427016265631926,0
1.04,0.022095463258404315,0,-0.13298392347189544,0
1.05,0.02417639583438149,0,-0.1216946061569669,0
1.06,0.02609601372127363,0,-0.11052026858193056,0
1.07,0.027853116308610905,0,-0.09956173269870605,0
1.08,0.02944803126509909,0,-0.08890269489273199,0
1.09,0.030882434246323413,0,-0.07861013965502336,0
1.1,0.03215908155793344,0,-0.06873548492120594,0
1.11,0.03328163121408668,0,-0.059315979339369954,0
1.12,0.034254508390859834,0,-0.05037610461304508,0
1.1300000000000001,0.03508271369038478,0,-0.04192982405816599,0
1.1400000000000001,0.03577167446847346,0,-0.03398276601762928,0
1.1500000000000001,0.03632717814669406,0,-0.02653379215302508,0
1.16,0.03675522009585391,0,-0.01957727187672328,0
1.17,0.037061938094156484,0,-0.013104233180088942,0
1.18,0.037253536058990316,0,-0.0071030716152882456,0
1.19,0.03733620985631093,0,-0.0015602349304807918,0
1.2,0.03731608626388994,0,0.003540212044534377,0
1.21,0.03719916112082694,0,0.008216812297751962,0
1.22,0.036991270695779274,0,0.012490924984217845,0
1.23,0.03669801302093665,0,0.01638701670629584,0
1.24,0.03632475056547217,0,0.019931927194737385,0
1.25,0.035876586785108,0,0.02315381324241636,0
1.26,0.03535832334888583,0,0.02608049899977844,0
1.27,0.03477454364754233,0,0.02873725334603717,0
1.28,0.03412955226119996,0,0.03114502294939212,0
1.29,0.03342746333751666,0,0.03331904525361275,0
1.3,0.0326721804002856,0,0.03526880063796503,0
1.31,0.0318674246149155,0,0.036999387055821155,0
1.32,0.03101675247403564,0,0.038514373523805476,0
1.33,0.03012349847706877,0,0.0398197301129449,0
1.34,0.029190825731237765,0,0.04092770542038943,0
1.35,0.02822161104267001,0,0.041859703727305644,0
1.36,0.027218541962174162,0,0.042646582027016995,0
1.37,0.02618402255413816,0,0.04332597124094759,0
1.3800000000000001,0.025120302152121864,0,0.043936467744396135,0
1.3900000000000001,0.024029471237278995,0,0.04451030637840023,0
1.4000000000000001,0.022913552969407513,0,0.045067152184228174,0
1.41,0.02177454567038025,0,0.04561238916164369,0
1.42,0.020614387664546745,0,0.0461431019320523,0
1.43,0.0194349700727307,0,0.046662488784216805,0
1.44,0.018237946598851158,0,0.047200161581151125,0
1.45,0.017024808776102313,0,0.04783045458104949,0
1.46,0.0157966821748613,0,0.04867710796512041,0
1.47,0.014554726954529282,0,0.049893168155920424,0
1.48,0.013300051114139826,0,0.05161052237631328,0
1.49,0.012033981673493175,0,0.053877031794903,0
1.5,0.010758033810654696,0,0.05662174266345255,0
1.51,0.00947368418365986,0,0.05971479697606554,0
1.52,0.008182105984091232,0,0.06317693070892365,0
1.53,0.006884236341618124,0,0.0675064767522799,0
1.54,0.005581420461054514,0,0.07392080806664317,0
1.55,0.004276108037890326,0,0.08417904108364828,0
1.56,0.0029712822432809887,0,0.10012846338648995,0
1.57,0.0016717308252823472,0,0.12584844967637632,0
1.58,0.00040576552174804753,0,0.17778059565833362,0