# 20250122_111354
# epsilon:0.00012298(GeV^4)
# mass:0.42(GeV)
# sign:1
alpha,RePhi,ImPhi,ReDPhi,ImDPhi
0.,0.026403872663897245,0,-0.13938541470311253,0
0.01,0.0264145471658808,0,-0.13975190428690162,0
0.02,0.02644524408342661,0,-0.1397892193010736,0
0.03,0.02649458886118432,0,-0.13966259805006032,0
0.04,0.026561903582280725,0,-0.13945396421625536,0
0.05,0.026646938092695308,0,-0.13919592290770744,0
0.06,0.02674966334834936,0,-0.13889449979581941,0
0.07,0.026870139341398692,0,-0.1385433600409916,0
0.08,0.027008428315218075,0,-0.13813204363925607,0
0.09,0.027164559214430534,0,-0.13765022680866024,0
0.1,0.02733849060767963,0,-0.13708939383059346,0
0.11,0.027530112136647165,0,-0.13644298910492172,0
0.12,0.027739252252079835,0,-0.13570580774415175,0
0.13,0.027965696588334154,0,-0.13487315633827154,0
0.14,0.028209167196607016,0,-0.13393980390180496,0
0.15,0.0284693656399928,0,-0.13289943822976094,0
0.16,0.02874595330410401,0,-0.1317440500901627,0
0.17,0.02903855884590599,0,-0.13046371762684328,0
0.18,0.029346768173498898,0,-0.1290466234074864,0
0.19,0.029670098422738055,0,-0.1274789536285714,0
0.2,0.03000799442135344,0,-0.12574529164517068,0
0.21,0.030359799597668713,0,-0.12382861010726216,0
0.22,0.03072472546313129,0,-0.12171059077893968,0
0.23,0.031101854170492934,0,-0.11937172993217779,0
0.24,0.03149006551983796,0,-0.11679136406077822,0
0.25,0.03188806539308735,0,-0.11394783202361276,0
0.26,0.032294316420185494,0,-0.11081829519187905,0
0.27,0.03270702217046631,0,-0.10737884126912951,0
0.28,0.03312409657672856,0,-0.10360428648333422,0
0.29,0.03354318269126016,0,-0.09946828870305324,0
0.3,0.0339614858664761,0,-0.09494326445459951,0
0.31,0.03437595655353271,0,-0.09000049184066125,0
0.32,0.03478301201518945,0,-0.08461032822797672,0
0.33,0.03517879693165529,0,-0.07874228937046117,0
0.34,0.03555881259745341,0,-0.07236591362498246,0
0.35000000000000003,0.03591828107647937,0,-0.06545045689700135,0
0.36,0.036251716174217706,0,-0.05796671027094546,0
0.37,0.03655331922548384,0,-0.0498861608745016,0
0.38,0.03681658857240083,0,-0.041183725040422364,0
0.39,0.03703465819278867,0,-0.03183651546307651,0
0.4,0.037200044701313204,0,-0.021827050929232823,0
0.41000000000000003,0.03730484671392681,0,-0.011142229907605869,0
0.42,0.03734070933891781,0,0.00022409643771097553,0
0.43,0.03729891011544285,0,0.012271177435611997,0
0.44,0.037170371505106534,0,0.024988940046287406,0
0.45,0.036945824883782716,0,0.03835884423732967,0
0.46,0.036615844764436065,0,0.05235082473878687,0
0.47000000000000003,0.03617102143430283,0,0.06692380101793471,0
0.48,0.03560203900440877,0,0.08202439367008983,0
0.49,0.03489990870991963,0,0.09758510601844347,0
0.5,0.03405600769425061,0,0.11352578608582722,0
0.51,0.03306242615720376,0,0.12975014637650834,0
0.52,0.03191199188217849,0,0.14614817102447072,0
0.53,0.030598570487244403,0,0.16259400630723764,0
0.54,0.029117316363480486,0,0.1789467066405361,0
0.55,0.027464653863764742,0,0.1950514776977905,0
0.56,0.025638910774177678,0,0.21073876368435057,0
0.5700000000000001,0.023640005144416998,0,0.22582785452395693,0
0.58,0.021470138751061296,0,0.24012675153281665,0
0.59,0.019133679547399418,0,0.2534361291923847,0
0.6,0.01663731351733383,0,0.26555134691710025,0
0.61,0.013990550353315041,0,0.27626683335811597,0
0.62,0.01120520459445965,0,0.28537915150763377,0
0.63,0.008296026347988874,0,0.29269250483823445,0
0.64,0.005280434214458797,0,0.29802303791312457,0
0.65,0.002178423707362979,0,0.30120338184285467,0
0.66,-0.0009874455111440065,0,0.30208789237861017,0
0.67,-0.004192216051765441,0,0.30055799434833497,0
0.68,-0.007408902521789265,0,0.29652562890557055,0
0.6900000000000001,-0.01060875510210609,0,0.2899369698127561,0
0.7000000000000001,-0.013761582690905416,0,0.2807771845810476,0
0.71,-0.016836286157477353,0,0.269071941815082,0
0.72,-0.019801315990010625,0,0.254888243671767,0
0.73,-0.022625171605083788,0,0.2383363526970462,0
0.74,-0.025277025355773225,0,0.21956978650194683,0
0.75,-0.027727247118725196,0,0.198782399501734,0
0.76,-0.02994791955733375,0,0.17620643266496397,0
0.77,-0.03191352886408197,0,0.15211034685014663,0
0.78,-0.03360140537711807,0,0.126792800925051,0
0.79,-0.0349920862711633,0,0.10057699575169114,0
0.8,-0.03606986047194817,0,0.07380514452075793,0
0.81,-0.03682314150839772,0,0.04683071341018268,0
0.8200000000000001,-0.03724450952140283,0,0.02000998375896221,0
0.8300000000000001,-0.03733089906704805,0,-0.0063056809688150665,0
0.84,-0.037083855039979616,0,-0.03177858783746859,0
0.85,-0.036509247839795915,0,-0.05609316535641585,0
0.86,-0.035617063484658824,0,-0.07896301518358076,0
0.87,-0.03442132833436877,0,-0.1001381054955268,0
0.88,-0.03293970336460032,0,-0.11941047923758322,0
0.89,-0.03119291849018172,0,-0.13661719958795487,0
0.9,-0.029204380433838925,0,-0.15164259705016808,0
0.91,-0.026999697822448765,0,-0.16441969216246913,0
0.92,-0.0246059942145394,0,-0.17492757314433596,0
0.93,-0.022051391329802474,0,-0.18318810175570083,0
0.9400000000000001,-0.01936448030819472,0,-0.1892627137653325,0
0.9500000000000001,-0.016573744230562442,0,-0.19324680941900538,0
0.96,-0.013707106607483454,0,-0.1952631282032969,0
0.97,-0.010791519422601141,0,-0.19545627489151227,0
0.98,-0.00785251613658361,0,-0.1939873426143268,0
0.99,-0.004913977049276886,0,-0.19102753084694277,0
1.,-0.0019979361219652596,0,-0.1867533567916031,0
1.01,0.0008756842014828177,0,-0.18134280924841348,0
1.02,0.0036891452519911415,0,-0.17497140506263703,0
1.03,0.006426849823606416,0,-0.1678090085168928,0
1.04,0.009075381223859922,0,-0.16001753315127695,0
1.05,0.011623516723310447,0,-0.15174884946199688,0
1.06,0.014062019201015385,0,-0.1431429790606514,0
1.07,0.016383515044852068,0,-0.13432686050300813,0
1.08,0.018582429969680844,0,-0.12541328917913305,0
1.09,0.02065478015281566,0,-0.11650031712726168,0
1.1,0.02259796157998606,0,-0.10767118230392361,0
1.11,0.024410624382230215,0,-0.0989945942141727,0
1.12,0.026092531626090515,0,-0.0905255099197968,0
1.1300000000000001,0.02764437060237871,0,-0.08230649939392133,0
1.1400000000000001,0.029067574966606245,0,-0.07436956819579273,0
1.1500000000000001,0.030364314342649135,0,-0.06673769688112749,0
1.16,0.03153725061215894,0,-0.05942726015787952,0
1.17,0.03258953287610782,0,-0.05244937614529073,0
1.18,0.033524678357907026,0,-0.045811424105883077,0
1.19,0.034346470322265975,0,-0.039518089606625596,0
1.2,0.03505893236680158,0,-0.033571298745719895,0
1.21,0.0356662137290789,0,-0.02797047700627193,0
1.22,0.0361725511266211,0,-0.022711885113044138,0
1.23,0.03658219070443419,0,-0.017788048511243153,0
1.24,0.03689935038192235,0,-0.013187848454017638,0
1.25,0.03712814657174857,0,-0.008896319985575198,0
1.26,0.0372726055003641,0,-0.004895946222154662,0
1.27,0.03733658193155861,0,-0.001167725185284513,0
1.28,0.03732382322630324,0,0.002306687690241105,0
1.29,0.03723789889430906,0,0.0055434376559102255,0
1.3,0.037082280208040136,0,0.008555012224512522,0
1.31,0.0368602893204171,0,0.011350087896745265,0
1.32,0.03657515141821171,0,0.013934401940532661,0
1.33,0.03622995450205564,0,0.016313033271734226,0
1.34,0.03582765937632597,0,0.018493243725982152,0
1.35,0.035371061682729237,0,0.02048741358948721,0
1.36,0.03486279138945321,0,0.022314571498447334,0
1.37,0.03430528680487952,0,0.024000099357623983,0
1.3800000000000001,0.03370083574712057,0,0.025572655388172966,0
1.3900000000000001,0.03305157063167436,0,0.027059470625873182,0
1.4000000000000001,0.03235955356227657,0,0.028481159592976698,0
1.41,0.031626773180192115,0,0.029849141705782893,0
1.42,0.030855173438849706,0,0.031168267728700263,0
1.43,0.030046651791464818,0,0.03244623617384917,0
1.44,0.029202921558825538,0,0.033709145746022275,0
1.45,0.028325521001738536,0,0.03501733070711946,0
1.46,0.027415786419231276,0,0.03647270734668093,0
1.47,0.026474897090362912,0,0.038206630465174425,0
1.48,0.025504057908623114,0,0.04034275857246284,0
1.49,0.02450457362557677,0,0.042944302853759025,0
1.5,0.02347794516043903,0,0.04597925466728334,0
1.51,0.022425596062542196,0,0.04936168357583176,0
1.52,0.021348702455566172,0,0.05312433204731858,0
1.53,0.020248241861334698,0,0.057709311584729965,0
1.54,0.019125507948187473,0,0.06421018940087524,0
1.55,0.017982793720624238,0,0.07426324748437886,0
1.56,0.01682289778646859,0,0.08967584712959926,0
1.57,0.01565041480487562,0,0.11437660145870199,0
1.58,0.014490437161107327,0,0.16385848803595685,0