alpha,tau,r,Dtau,Dr,ur,utau
0.0,130.09992741565617,0.0,0.0,125.80405282029938,0.0,0.9990927019645268
0.0031498924384667265,130.10736811506538,0.41133256334098456,-0.10106975862460128,125.91538255558929,0.0041126163927805055,0.9994335386013344
0.006299784876933453,130.1127544847408,0.8193578921864824,-0.1941141585100029,125.99837485727349,0.00810661692106732,0.9997170695713418
0.00944967731540018,130.11642876552267,1.224686782807839,-0.2800388449060121,126.05950788697271,0.012003883972626406,0.9999561757592849
0.012599569753866906,130.11868354661175,1.6278426872859189,-0.3597368615248909,126.10416455310265,0.015823126242464756,1.000161871589154
0.015749462192333634,130.11976749785885,2.029271827352881,-0.4340759195334336,126.13677985235697,0.019580249637623306,1.0003435221655068
0.01889935463080036,130.11989056605017,2.4293523640415122,-0.5038882888518755,126.16097232975866,0.023288693195194027,1.0005090400496799
0.022049247069267086,130.1192286754233,2.8284026937936213,-0.5699630006561673,126.1796610237235,0.02695973266466891,1.000665063203626
0.025199139507733812,130.11792797026564,3.2266889375195564,-0.6330400757894904,126.19516917006423,0.03060275424722359,1.0008171155432184
0.02834903194620054,130.1161086351734,3.6244316851259555,-0.6938065180578463,126.20931585110702,0.03422550083320555,1.0009697514560527
0.03149892438466727,130.11386832637504,4.021812054232663,-0.752893834176003,126.22349669292083,0.037834292934713076,1.0011266855559053
0.03464881682313399,130.11128524545182,4.418977118177038,-0.8108768635054799,126.23875463490931,0.0414342263724983,1.0012909088669606
0.03779870926160072,130.10842088481252,4.816044754949094,-0.8682737207456697,126.25584172151716,0.04502934864528935,1.0014647925555724
0.04094860170006744,130.10532247239794,5.213107965408913,-0.9255466734611965,126.27527279540018,0.04862281578479066,1.001650180255561
0.04409849413853417,130.10202514129966,5.61023870600317,-0.9831037938104764,126.29737190493975,0.05221703138087858,1.0018484699647474
0.047248386577000895,130.0985538482752,6.007491278215341,-1.0413012401378323,126.32231217629632,0.05581376934865514,1.00206068642548
0.050398279015467624,130.09492506352274,6.4049053141491905,-1.1004460392588922,126.35014984114058,0.05941428190185607,1.0022875448401956
0.053548171453934354,130.09114825254278,6.802508394952358,-1.1607992543591725,126.38085305562775,0.06301939409542942,1.0025295067144742
0.05669806389240108,130.0872271694571,7.200318336231542,-1.2225794364902989,126.41432609394599,0.06662958620371606,1.0027868285644788
0.059847956330867806,130.08316097977362,7.598345172187961,-1.285966269737273,126.45042945073325,0.07024506510938044,1.0030596041730142
0.06299784876933454,130.07894522927927,7.996592867906794,-1.35110433129226,126.48899634068164,0.07386582579187223,1.0033478010285837
0.06614774120780126,130.0745726745055,8.39506078706261,-1.418106897952766,126.5298460405983,0.07749170392256391,1.0036512915346767
0.06929763364626798,130.07003398904345,8.7937449402496,-1.4870597400106995,126.57279447893968,0.0811224204966251,1.003969879531963
0.0724475260847347,130.0653183588817,9.192639037206611,-1.558024852158075,126.61766244025172,0.08475761935898629,1.0043033226340208
0.07559741852320144,130.06041397890152,9.59173536437779,-1.631044078948164,126.66428171691001,0.08839689841323825,1.0046513508375863
0.07874731096166816,130.05530846168267,9.991025507526183,-1.7061425995593298,126.71249950794082,0.0920398352378439,1.005013681830965
0.08189720340013489,130.04998916885424,10.3905009374954,-1.7833322431530518,126.76218133439819,0.09568600777343719,1.0053900333891328
0.08504709583860162,130.0444434743577,10.790153475689486,-1.8626146120366023,126.81321271266171,0.09933501068809125,1.0057801332110574
0.08819698827706834,130.03865896817794,11.189975654409483,-1.9439839951722193,126.8654998009932,0.10298646797409577,1.006183726523809
0.09134688071553507,130.03262360833713,11.58996098584278,-2.027430059354654,126.91896921064108,0.10664004227984147,1.0066005817490222
0.09449677315400179,130.0263258282341,11.99010415224446,-2.1129403096426973,126.97356715060593,0.11029544143371145,1.00703049450013
0.09764666559246853,130.01975460574684,12.390401128674792,-2.200502314411315,127.02925805477902,0.11395242257328789,1.0074732901534214
0.10079655803093525,130.0128994998949,12.790849248560036,-2.2901056937218742,127.08602282143963,0.11761079425254736,1.0079288252123249
0.10394645046940197,130.00575066028034,13.191447221321374,-2.381743872619563,127.14385677795383,0.12127041686190707,1.008396987662276
0.10709634290786871,129.99829881398907,13.592195110365493,-2.475415603489532,127.20276746786631,0.12493120166085953,1.0088776964930466
0.11024623534633543,129.99053523413446,13.993094278846925,-2.5711262637650916,127.26277234332944,0.1285931086903651,1.0093709005463953
0.11339612778480215,129.9824516937646,14.394147309793233,-2.6688889371098106,127.32389643288688,0.13225614380203338,1.0098765768292863
0.11654602022326888,129.97404040842588,14.795357906426457,-2.7687252877170137,127.38617004294015,0.13592035501329083,1.010394728416644
0.11969591266173561,129.96529397028263,15.196730777814802,-2.8706662386097848,127.44962654069919,0.13958582837208827,1.0109253820525927
0.12284580510020233,129.95620527632963,15.598271514344342,-2.9747524658061253,127.514300256974,0.14325268349112372,1.0114685855453092
0.12599569753866907,129.9467674529012,15.999986456908593,-3.081034720960266,127.58022453873545,0.1469210688899419,1.012024405037927
0.1291455899771358,129.93697377837626,16.401882563171387,-3.1895739956236437,127.64742997388645,0.15059115726350414,1.012592922226326
0.13229548241560252,129.92681760569957,16.80396727376296,-3.3004415406085412,127.71594280407554,0.15426314077779782,1.0131742315840198
0.13544537485406924,129.9162922860877,17.206248380817456,-3.413718754103201,127.78578353558949,0.1579372264766814,1.0137684376447254
0.13859526729253596,129.90539109505673,17.608733900850417,-3.5294969521976993,127.85696575331865,0.1616136318693231,1.0143756523844298
0.14174515973100268,129.894107161702,18.011431953603708,-3.6478770353527823,127.92949513844057,0.16529258075421188,1.0149959927368735
0.1448950521694694,129.88243340197363,18.414350648151505,-3.7689690640949673,128.00336868675876,0.16897429932369876,1.0156295782692486
0.14804494460793616,129.87036245652328,18.817497977261255,-3.892891756866744,128.0785741215108,0.17265901258227667,1.0162765290385425
0.15119483704640288,129.85788663354893,19.22088172073599,-4.019771922514458,128.15508949187438,0.1763469411022483,1.016936963643271
0.1543447294848696,129.84499785693174,19.624509358227332,-4.149743839372532,128.23288294630353,0.180038298131979,1.0176109974803214
0.15749462192333633,129.831687619843,20.02838799179907,-4.2829485923132475,128.3119126681706,0.1837332870645106,1.0182987412121922
0.16064451436180305,129.8179469438963,20.432524278338196,-4.4195333784887305,128.39212695994178,0.18743209926784868,1.0190002994460463
0.16379440680026977,129.8037663438331,20.836924371751238,-4.559650791806586,128.47346446121506,0.19113491227264884,1.0197157696226493
0.1669442992387365,129.78913579765256,21.24159387474749,-4.7034580954630245,128.55585448538594,0.1948418883082764,1.020445241110395
0.17009419167720324,129.7740447220335,21.646537799894638,-4.8511164911170805,128.63921745941533,0.1985531731741894,1.0211887944971862
0.17324408411566997,129.75848195284166,22.051760539535685,-5.002790392534543,128.7234654511498,0.20226889543028256,1.0219465010709305
0.1763939765541367,129.74243573047272,22.457265844076957,-5.158646710768976,128.8085027688258,0.20598916588713959,1.0227184224777544
0.1795438689926034,129.7258936897454,22.863056808093287,-5.318854157186659,128.89422661777928,0.2097140773750192,1.023504610545737
0.18269376143107013,129.70884285403235,23.26913586364809,-5.4835825698888705,128.98052779991852,0.21344370476882374,1.0243051072609686
0.18584365386953686,129.69126963329762,23.675504780190373,-5.653002268343866,129.06729144220847,0.21717810524515513,1.0251199448820187
0.18899354630800358,129.6731598256948,24.082164670366982,-5.827283440319668,129.15439774120392,0.22091731874688972,1.025949146178437
0.19214343874647033,129.65449862237446,24.489116001075605,-6.006595564508032,129.2417227115686,0.22466136863037217,1.0267927247786734
0.19529333118493705,129.63527061514623,24.896358609080487,-6.191106871558104,129.32913892746961,0.2284102624703427,1.027650685612767
0.19844322362340377,129.6154598066438,25.303891720517964,-6.380983845595229,129.41651624675688,0.23216399299804058,1.0285230254352888
0.2015931160618705,129.59504962264842,25.71171397363159,-6.576390767691613,129.50372250889018,0.23592253914848393,1.0294097334143375
0.20474300850033722,129.57402292623522,26.119823444094887,-6.777489302182142,129.59062419864287,0.23968586719373922,1.030310791772802
0.20789290093880394,129.5523620334214,26.52821767230536,-6.984438126182443,129.67708706869922,0.24345393193994969,1.0312261764686672
0.21104279337727067,129.5300487300098,26.93689369206177,-7.197392602170808,129.76297671533095,0.24722667796708891,1.0321558579017869
0.21419268581573742,129.50706428933972,27.34584806007016,-7.416504493039108,129.84815910239516,0.2510040408916228,1.0330998016352728
0.21734257825420414,129.48338949067562,27.75507688576074,-7.64192171860465,129.9325010299345,0.2547859486337028,1.0340579691204428
0.22049247069267086,129.45900463798628,28.164575860936406,-7.873788152199807,130.0158705446437,0.25857232267193386,1.0350303184151364
0.22364236313113758,129.43388957888692,28.574340288814767,-8.112243455628816,130.0981372904252,0.26236307927030733,1.0360168048860616
0.2267922555696043,129.40802372354054,28.98436511206738,-8.357422950489466,130.17917279816666,0.26615813066343635,1.0370173818867743
0.22994214800807103,129.38138606333692,29.39464493950348,-8.609457523609107,130.25885071469963,0.2699573861878226,1.0380320014038102
0.23309204044653775,129.3539551891897,29.80517407108829,-8.868473564140006,130.33704697171103,0.2737607533484328,1.0390606146644086
0.2362419328850045,129.3257093093157,30.21594652102896,-9.134592929685873,130.41363989608362,0.2775681388114815,1.0401031727002203
0.23939182532347122,129.29662626638213,30.62695603870552,-9.407932938706002,130.48851026381936,0.28137944931580217,1.0411596268622694
0.24254171776193795,129.266683553929,31.038196127263188,-9.688606386345775,130.56154130027343,0.2851945924967114,1.0422299292833608
0.24569161020040467,129.2358583319946,31.44966005972589,-9.976721580787935,130.6326186299615,0.28901347761775004,1.0433140332849913
0.2488415026388714,129.20412744189323,31.861340892528563,-10.27238239719082,130.70163017965388,0.29283601620699806,1.0444118937266231
0.25199139507733814,129.17146742011155,32.27323147640291,-10.575688346286636,130.7684660388577,0.2966621225960792,1.0455234672960199
0.25514128751580484,129.137854511309,32.6853244645883,-10.886734654752278,130.83301828209392,0.30049171436114147,1.0466487127400612
0.2582911799542716,129.10326468042422,33.09761231837179,-11.20561235452471,130.89518075764076,0.30432471266628713,1.0477875910361902
0.2614410723927383,129.0676736239043,33.5100873099927,-11.532408378322097,130.9548488475894,0.3081610425110681,1.0489400655052652
0.26459096483120503,129.03105678008873,33.92274152297674,-11.86720565874668,131.0119192041813,0.3120006328845054,1.0501061018672697
0.26774085726967173,128.99338933879113,34.33556684998994,-12.21008322847582,131.06628946746932,0.3158434168292311,1.051285668241796
0.2708907497081385,128.9546462501349,34.74855498832887,-12.561116319195966,131.1178579693154,0.31968933141988426,1.0524787350958051
0.27404064214660523,128.91480223270742,35.16169743318046,-12.920376457111157,131.16652342873888,0.32353831766084745,1.0536852751415462
0.2771905345850719,128.87383178110622,35.574985468811285,-13.28793155302002,131.21218464348814,0.3273903203089005,1.0549052631879892
0.2803404270235387,128.83170917295868,35.98841015785267,-13.66384598517815,131.2547401825469,0.33124528762692784,1.0561386759493492
0.28349031946200537,128.78840847550043,36.40196232887104,-14.048180673328396,131.29408808417935,0.33510317107525683,1.0573854918147103
0.2866402119004721,128.74390355180407,36.81563256241776,-14.440993142521565,131.33012556376931,0.33896392494760663,1.0586456905828276
0.2897901043389388,128.6981680667511,37.22941117576455,-14.842337575547072,131.3627487355353,0.3428275059587794,1.05991925316654
0.29293999677740556,128.65117549284372,37.64328820653595,-15.252264853020122,131.39185235186986,0.34669387279148867,1.0612061612711459
0.2960898892158723,128.60289911595117,38.05725339545543,-15.670822580378232,131.41732956373176,0.3505629856098437,1.0625063970514392
0.299239781654339,128.55331204108631,38.47129616842088,-16.098055101273328,131.43907170518915,0.35443480554688206,1.0638199427518211
0.30238967409280576,128.50238719830696,38.88540561813107,-16.534003497045056,131.45696810479396,0.35830929417372354,1.0651467803342343
0.30553956653127246,128.45009734883214,39.29957048547347,-16.978705572178285,131.4709059261881,0.36218641295755793,1.0664868910982706
0.3086894589697392,128.39641509146034,39.713779140888285,-17.432195825854635,131.48077003987734,0.3660661227156577,1.067840255298048
0.3118393514082059,128.34131286937406,40.12801956591414,-17.894505409890076,131.4864429276782,0.3699483830723403,1.0692068517600293
0.31498924384667265,128.28476297740465,40.542279335112426,-18.36566207355191,131.4878046211119,0.3738331519254288,1.0705866575060108
0.3181391362851394,128.22673756983437,40.95654559855938,-18.845690095925242,131.48473267441716,0.37772038492854987,1.0719796473851888
0.3212890287236061,128.1672086687952,41.37080506508765,-19.334610206638818,131.47710217257153,0.3816100349950582,1.0733857937191096
0.32443892116207285,128.10614817332478,41.78504398644133,-19.83243949595316,131.46478577440735,0.38550205182915753,1.0748050659628545
0.32758881360053954,128.0435278691289,42.199248142505326,-20.339191315309733,131.4476537902567,0.38939638148914607,1.0762374303859314
0.3307387060390063,127.97931943909306,42.61340282774422,-20.854875169594965,131.42557429365533,0.3932929659872773,1.0776828497755633
0.333888598477473,127.91349447457577,43.02749283898584,-21.379496602472514,131.3984132656834,0.39719174293035303,1.0791412831652227
0.33703849091593974,127.84602448751087,43.441502464657596,-21.913057076219022,131.36603477093055,0.40109264520448296,1.0806126855906533
0.3401883833544065,127.77688092333221,43.855415475575924,-22.455553847592036,131.32830116300028,0.40499560070698265,1.0820970078755123
0.3433382757928732,127.70603517473248,44.26921511737454,-23.006979841305977,131.2850733178661,0.4089005321276886,1.0835941964481917
0.34648816823133993,127.6334585962535,44.68288410463142,-23.567323522774664,131.23621089266203,0.41280735678197594,1.0851041931913628
0.3496380606698066,127.55912251969836,45.09640461675517,-24.136568771723464,131.18157260755288,0.41671598649628566,1.0866269353251943
0.3527879531082734,127.48299827035079,45.50975829565658,-24.71469475839672,131.12101654792698,0.4206263275473311,1.0881623553249635
0.3559378455467401,127.40505718397188,45.9229262452361,-25.301675823989346,131.05440048417455,0.4245382806550649,1.089710380873608
0.3590877379852068,127.32527062454433,46.33588903268115,-25.897481366956573,130.98158220595323,0.42845174102941663,1.0912709348491039
0.3622376304236736,127.24361000272258,46.748626691574714,-26.502075736846386,130.9024198680568,0.43236659846960546,1.09284393534654
0.36538752286214027,127.16004679493712,47.16111872677927,-27.115418137135485,130.81677234442435,0.4362827375154624,1.0944292957345294
0.368537415300607,127.07455256310588,47.57334412106953,-27.73746253869548,130.72449958732426,0.4402000376483959,1.0960269247448768
0.3716873077390737,126.98709897488452,47.98528134345287,-28.36815760514645,130.62546298840425,0.44411837354078154,1.0976367265946825
0.37483720017754046,126.89765782438988,48.39690835911938,-29.007446631605163,130.51952573823115,0.44803761535019015,1.099258601139456
0.37798709261600716,126.8062010533339,48.80820264094769,-29.65526749789993,130.40655318145122,0.4519576290567935,1.1008924440556511
0.3811369850544739,126.71270077247824,49.219141182473,-30.311552637492166,130.2864131638726,0.45587827683994614,1.102538147050986
0.38428687749294066,126.61712928334255,49.62970051223275,-30.976229023029465,130.15897636920664,0.45979941749101644,1.1041955981005418
0.38743676993140735,126.51945910007016,50.03985670937664,-31.649218169388533,130.02411664172027,0.46372090685816286,1.1058646817063278
0.3905866623698741,126.41966297138607,50.44958542042957,-32.330436155021296,129.881711292673,0.46764259831983535,1.1075452791783025
0.3937365548083408,126.31771390253209,50.8588618770958,-33.01979366206218,129.73164138755567,0.4715643432823355,1.109237268934198
0.39688644724680755,126.21358517711614,51.267660914973156,-33.717196035734275,129.5737920117278,0.47548599169731626,1.1109405268157488
0.40003633968527424,126.1072503787694,51.67595699304786,-34.422543363236976,129.40805251240258,0.4794073925951316,1.1126549264185213
0.403186232123741,125.99868341253485,52.08372421384351,-35.13573057235008,129.2343167148688,0.48332839462862376,1.1143803394328615
0.40633612456220775,125.88785852588339,52.49093634407701,-35.85664754959894,129.05248311093123,0.48724884662445006,1.1161166359932426
0.40948601700067444,125.77475032928788,52.89756683570966,-36.5851792778018,128.862455018556,0.49116859813604613,1.1178636850327186
0.4126359094391412,125.65933381625855,53.303588847210435,-37.32120599275805,128.6641407110346,0.4950874999940742,1.1196213546406704
0.4157858018776079,125.54158438275735,53.70897526496925,-38.064603358387096,128.4574535148511,0.4990054048506761,1.1213895124199826
0.41893569431607464,125.42147784592163,54.11369872462903,-38.81524265977054,128.24231187547736,0.5029221677126071,1.1231680258422303
0.42208558675454133,125.29899046200934,54.5177316323098,-39.57299101325293,128.01863939060095,0.506837646458643,1.124956762596797
0.4252354791930081,125.1740989435075,54.921046185507684,-40.33771159260094,127.78636481105939,0.5107517023393061,1.1267555909325957
0.42838537163147483,125.04678047532191,55.323614393597225,-41.109263870203414,127.54542200871731,0.5146642004520199,1.128564379989434
0.4315352640699415,124.91701273000574,55.72540809781893,-41.88750387192592,127.29574991293751,0.5185750101909402,1.1303830001163244
0.4346851565084083,124.78477388195034,56.12639899059707,-42.672284444588435,127.03729241483335,0.5224840056671942,1.132211323175477
0.43783504894687497,124.65004262051023,56.52655863414585,-43.46345553403885,126.76999824177076,0.5263910660952122,1.1340492228284278
0.4409849413853417,124.5127981620036,56.925858478213534,-44.260864473091296,126.49382080227987,0.5302960761447428,1.1358965748042902
0.4441348338238084,124.37302026055391,57.32426987689805,-45.064356276694525,126.2087180032735,0.534198926253913,1.1377532571466213
0.44728472626227517,124.23068921774473,57.72176410446794,-45.87377394349762,125.914652041174,0.538099512902786,1.139619150438616
0.4504346187007419,124.08578589107701,58.11831237009274,-46.68895876141081,125.61158916866484,0.5419977388446595,1.1414941380041335
0.4535845111392086,123.93829170118465,58.51388583141642,-47.50975061555485,125.29949944014567,0.5458935132940067,1.1433781060843378
0.45673440357767536,123.78818863782195,58.90845560698751,-48.335988296686054,124.97835643632345,0.5497867520691957,1.1452709439887998
0.45988429601614206,123.63545926462854,59.301992787384386,-49.16750980822808,124.64813697252175,0.553677377691228,1.1471725442192404
0.4630341884546088,123.4800867226355,59.69446844514101,-50.004152669613795,124.30882079207193,0.5575653194353931,1.1490828025675455
0.4661840808930755,123.322054732593,60.08585364334798,-50.8457542148083,123.96039024771196,0.5614505133368526,1.1510016181845715
0.46933397333154225,123.16134759607287,60.476119442969534,-51.692151883074786,123.60282997415639,0.5653329021523911,1.1529288936229738
